"[T]"	"T"	"AB"	"BC"	"CA"	"mA"	"mB"	"mC"	"cAB"	"cBC"	"cCA"	"ABC"	"BCA"	"CAB"	"ABCA"	"BCAB"	"CABC"
0.	0	0	0	0	1000	1000	1000	0	0	0	0	0	0	0	0	0
0.1	43	946	957	951	3	2	2	2	6	3	1	1	1	4	1	2
0.2	53	957	953	950	1	4	2	2	2	2	1	2	2	5	1	3
0.3	63	957	948	943	3	2	1	4	3	2	4	3	2	2	1	2
0.4	87	955	958	951	2	1	1	0	4	2	2	0	3	2	3	2
0.5	97	956	949	949	5	2	4	3	2	2	3	1	3	2	4	1
0.6	114	946	950	951	3	2	2	2	0	5	3	4	2	3	5	3
0.7	125	958	953	956	3	1	1	2	1	6	2	4	1	1	2	1
0.8	140	963	949	956	2	3	3	1	2	3	1	1	2	1	0	4
0.9	154	953	949	953	1	2	5	1	2	6	3	2	3	3	3	2
1.	169	951	956	963	3	3	1	4	2	4	1	0	1	1	5	0
1.1	182	960	948	957	1	5	4	5	1	2	2	0	0	3	2	4
1.2	189	963	960	955	5	1	4	7	1	3	0	1	0	2	1	0
1.3	199	948	955	960	1	2	4	3	2	4	0	3	0	1	2	0
1.4	209	950	957	961	1	4	1	2	3	1	0	1	3	4	6	3
1.5	218	959	952	959	2	1	6	4	1	3	3	3	0	2	1	2
1.6	229	951	959	955	2	4	4	1	1	4	1	3	1	0	1	3
1.7	235	954	959	957	5	2	0	0	0	5	2	2	2	2	0	2
1.8	244	956	960	955	1	3	1	3	3	3	0	0	1	0	2	2
1.9	249	947	951	964	2	2	2	2	2	4	0	3	4	1	5	4
2.	260	957	949	963	5	2	5	2	4	3	0	2	7	1	1	0
2.1	267	956	949	954	4	5	4	1	3	1	1	2	3	2	2	1
2.2	278	952	951	961	1	7	5	3	3	1	3	3	3	1	3	2
2.3	290	964	957	962	5	0	3	5	2	2	0	0	3	1	5	3
2.4	296	955	957	953	4	2	2	4	4	4	3	3	2	0	1	4
2.5	307	962	960	968	2	1	0	1	0	2	1	1	0	2	3	2
2.6	317	960	959	958	2	0	4	1	6	4	2	2	2	3	3	0
2.7	333	957	954	953	3	7	5	2	5	2	2	2	5	1	2	4
2.8	344	958	951	956	3	2	1	1	2	3	4	2	4	2	4	5
2.9	359	956	959	960	3	1	3	4	1	0	1	5	2	0	0	1
3.	374	956	968	964	3	1	0	2	3	4	4	3	2	1	0	4
3.1	377	955	962	962	2	5	4	1	0	1	1	2	1	2	2	3
3.2	389	962	965	961	4	4	2	1	1	1	4	1	2	3	1	1
3.3	395	966	959	966	0	4	4	2	1	3	2	0	0	2	2	1
3.4	406	956	966	962	6	8	0	1	0	1	0	0	1	5	5	1
3.5	412	960	965	959	3	2	3	1	4	3	3	2	1	0	2	1
3.6	424	954	961	959	4	4	1	2	2	2	3	1	2	2	2	3
3.7	437	962	966	963	5	1	6	3	2	2	0	2	0	0	2	1
3.8	441	962	967	953	3	1	2	3	6	2	1	2	3	4	2	3
3.9	447	961	966	956	2	4	2	1	5	2	2	1	1	3	0	2
4.	458	967	964	959	1	2	3	0	4	2	4	1	4	2	1	5
4.1	467	968	968	972	3	3	2	1	0	3	1	4	1	1	1	5
4.2	469	961	966	960	4	2	0	1	1	5	1	0	3	2	3	1
4.3	475	970	963	964	2	3	2	2	4	4	4	2	5	2	1	4
4.4	490	970	961	972	3	2	5	3	3	1	1	2	1	0	1	1
4.5	502	968	968	967	4	2	1	2	5	2	1	2	3	1	4	0
4.6	514	970	961	965	2	4	4	3	1	1	0	0	2	3	1	1
4.7	519	966	963	970	1	4	2	4	1	3	1	1	2	5	2	2
4.8	530	973	964	968	1	2	0	3	0	0	2	2	1	7	2	0
4.9	536	966	963	972	1	4	3	3	2	3	0	1	2	3	1	0
5.	541	966	960	962	2	4	3	1	0	5	3	2	3	2	4	1
5.1	547	970	971	965	1	3	2	0	2	2	2	5	0	2	1	1
5.2	556	977	973	971	1	2	2	3	0	2	2	1	2	0	1	0
5.3	561	969	965	965	4	0	6	2	0	1	1	1	2	4	1	3
5.4	562	966	965	971	4	4	0	3	2	4	2	1	3	3	2	2
5.5	570	966	972	968	1	1	3	2	2	4	2	2	0	4	3	1
5.6	575	966	972	973	2	2	3	1	0	0	1	2	0	2	1	1
5.7	586	966	974	970	0	1	5	4	2	2	1	2	0	3	2	1
5.8	597	964	971	969	3	5	5	2	1	0	2	1	0	2	3	3
5.9	604	970	972	965	1	3	2	2	1	3	2	1	0	0	3	3
6.	610	970	964	971	1	2	3	1	1	2	1	2	1	2	4	2
6.1	621	970	972	964	3	3	0	3	3	3	2	3	3	0	1	3
6.2	628	964	971	969	2	1	2	3	2	4	1	2	0	5	3	2
6.3	629	975	966	972	4	3	1	3	1	3	3	0	1	0	4	3
6.4	631	963	975	966	3	2	3	0	3	0	1	3	3	6	2	2
6.5	638	969	972	976	1	2	1	0	1	1	1	1	0	2	4	2
6.6	636	974	973	970	2	3	2	1	3	2	4	2	4	3	1	0
6.7	640	978	972	976	3	1	5	5	2	2	1	0	3	1	1	0
6.8	643	968	970	965	1	5	4	3	1	2	7	0	0	4	0	0
6.9	647	965	974	977	6	3	4	2	3	3	1	5	2	2	0	0
7.	656	974	969	972	0	3	3	3	2	0	2	3	1	1	1	4
7.1	667	975	968	970	0	3	2	2	2	4	2	2	2	1	3	1
7.2	671	975	972	977	0	3	1	2	2	2	2	2	2	0	1	1
7.3	675	967	968	975	1	1	3	3	1	4	0	3	3	2	1	1
7.4	680	973	967	970	0	3	5	5	2	4	2	3	1	2	1	1
7.5	685	974	976	971	0	2	3	1	1	0	3	1	2	0	2	2
7.6	692	976	975	973	2	3	3	2	1	4	2	1	0	0	0	3
7.7	701	977	979	972	3	3	2	0	3	1	1	1	0	1	1	0
7.8	705	976	975	974	2	5	2	2	1	1	1	2	4	3	1	2
7.9	710	981	971	974	1	2	5	1	1	1	1	3	2	1	2	1
8.	718	969	966	979	2	3	3	2	2	4	0	1	1	1	4	4
8.1	719	976	972	977	3	2	3	1	1	2	3	1	1	2	2	2
8.2	722	972	981	975	3	2	0	4	2	5	1	2	0	0	0	2
8.3	732	977	975	976	2	1	0	1	1	1	1	0	2	0	2	2
8.4	736	976	974	975	2	3	1	2	2	2	1	1	1	3	1	4
8.5	741	971	978	975	4	3	5	0	4	3	2	1	3	1	3	0
8.6	744	973	969	970	3	6	1	2	3	4	3	1	1	3	1	5
8.7	743	966	978	977	4	4	3	1	4	1	1	4	1	2	0	2
8.8	750	973	976	973	3	3	1	2	1	4	1	3	3	0	1	1
8.9	761	973	981	972	4	2	4	3	5	2	4	0	1	1	3	1
9.	766	974	975	982	2	3	1	1	3	5	0	0	1	1	2	2
9.1	765	976	971	984	0	3	3	1	1	5	0	1	2	1	2	2
9.2	761	978	976	981	2	3	5	3	2	1	2	3	0	2	0	1
9.3	769	976	979	974	0	2	3	2	3	2	0	5	0	2	0	4
9.4	772	978	979	977	4	3	1	1	2	1	1	1	2	0	3	3
9.5	775	982	974	975	1	5	1	4	0	2	3	1	1	1	3	2
9.6	781	982	985	983	0	3	1	0	1	0	0	1	2	2	0	1
9.7	791	981	981	981	2	0	1	2	3	1	1	1	1	0	1	1
9.8	797	980	976	974	5	4	3	3	1	0	3	1	2	3	2	3
9.9	799	980	975	976	5	1	4	5	1	2	1	1	1	0	1	3
10.	810	977	977	985	3	2	0	1	1	3	0	2	2	0	3	2
10.1	815	981	984	978	4	4	2	3	1	1	3	1	1	1	1	1
10.2	820	980	981	978	2	2	0	0	5	4	3	1	1	0	2	1
10.3	825	983	979	978	2	1	1	3	2	2	1	0	4	4	1	4
10.4	832	982	977	979	1	3	3	3	1	5	3	2	2	1	1	1
10.5	835	977	974	986	1	1	2	2	1	8	0	1	3	0	3	2
10.6	839	984	981	982	5	2	2	1	5	2	0	2	0	1	1	2
10.7	838	977	982	980	1	4	3	3	1	3	2	2	3	1	2	2
10.8	841	982	985	981	3	0	0	0	2	1	0	1	3	1	2	2
10.9	841	980	981	977	4	4	3	0	3	2	4	2	3	2	2	1
11.	845	981	983	985	0	2	1	3	3	3	1	2	1	0	2	2
11.1	856	980	979	985	3	3	2	2	1	2	3	0	3	2	1	3
11.2	860	980	984	986	1	4	0	1	0	3	2	1	0	1	1	4
11.3	861	978	985	987	0	1	1	0	1	7	1	2	1	1	0	1
11.4	863	979	980	985	4	3	2	2	4	4	1	1	1	3	2	2
11.5	867	982	982	981	2	3	5	2	4	2	1	3	2	3	1	4
11.6	868	979	988	984	1	2	2	0	4	3	1	3	1	3	2	0
11.7	868	982	978	986	4	2	4	0	1	2	0	2	5	1	3	2
11.8	875	979	985	981	3	3	4	5	2	4	0	1	1	2	1	2
11.9	870	977	987	984	6	4	3	3	2	3	1	1	1	1	2	0
12.	868	979	984	979	4	3	2	2	5	2	1	1	1	0	1	2
12.1	871	986	987	982	3	2	1	1	1	1	1	1	0	2	3	3
12.2	874	986	984	979	4	1	1	8	5	0	0	0	1	2	2	2
12.3	873	982	985	980	4	2	2	2	2	1	4	1	1	2	2	1
12.4	881	983	984	986	2	1	1	1	3	2	1	0	4	0	2	2
12.5	886	982	984	980	1	3	2	1	2	2	1	4	2	3	3	2
12.6	887	984	986	982	0	3	2	2	2	0	0	1	0	3	1	3
12.7	884	984	986	984	2	0	1	2	1	1	1	1	1	0	2	1
12.8	888	986	986	991	1	2	1	1	2	0	2	0	1	1	0	1
12.9	887	987	986	986	3	2	3	3	2	0	2	1	1	0	1	0
13.	889	989	986	983	5	3	5	1	1	0	0	1	1	2	0	3
13.1	890	979	983	987	2	2	1	1	4	3	3	2	3	1	4	1
13.2	894	986	985	987	1	1	3	0	0	2	2	1	2	1	1	2
13.3	896	981	984	986	3	2	2	1	4	1	1	3	1	2	1	1
13.4	900	985	984	989	3	1	3	2	1	2	0	2	1	1	2	1
13.5	898	985	985	984	1	0	1	5	3	4	2	1	1	1	2	2
13.6	901	979	986	986	4	3	1	2	5	5	0	2	1	3	0	0
13.7	901	984	983	983	2	1	3	3	4	1	2	1	3	3	3	1
13.8	901	988	986	980	1	1	2	3	3	1	5	0	1	3	1	3
13.9	905	983	988	986	3	1	1	2	3	1	0	4	1	1	1	1
14.	903	983	982	985	1	3	3	2	2	3	1	3	3	3	1	1
14.1	904	987	984	981	4	1	3	4	3	1	3	1	1	1	2	3
14.2	909	983	984	990	3	4	2	5	0	3	0	1	1	0	0	2
14.3	907	987	984	985	4	1	0	0	4	1	1	0	3	1	1	4
14.4	907	988	983	980	4	2	3	3	3	1	1	0	3	1	2	3
14.5	907	988	985	987	2	3	1	1	1	0	1	2	2	0	0	5
14.6	905	982	988	985	5	2	1	0	4	1	3	2	2	1	1	1
14.7	910	983	986	987	3	5	1	1	2	2	2	1	1	2	0	1
14.8	907	984	983	990	0	3	0	3	1	5	1	3	2	0	1	2
14.9	913	984	987	986	3	4	2	0	2	0	4	3	1	2	1	1
15.	917	986	990	987	1	0	3	4	2	4	2	3	0	0	1	2
15.1	912	984	989	986	3	0	0	1	4	2	0	3	1	1	1	2
15.2	912	985	986	988	2	1	2	0	1	2	0	2	1	2	0	0
15.3	909	983	985	988	2	2	2	0	1	2	0	3	0	1	0	1
15.4	908	983	984	989	4	2	3	0	2	4	0	0	1	1	4	0
15.5	906	987	986	990	1	2	2	0	2	2	2	3	1	0	0	0
15.6	902	983	984	989	3	2	1	0	3	2	0	2	3	1	1	2
15.7	903	988	987	984	2	2	2	3	0	1	3	1	1	1	1	2
15.8	903	987	983	981	1	2	7	4	1	0	0	0	2	3	1	4
15.9	905	982	992	985	1	1	2	0	5	1	0	2	1	5	3	0
16.	902	987	987	991	2	3	0	1	0	1	1	0	1	1	1	0
16.1	898	983	989	984	5	4	1	0	3	0	4	1	0	0	0	1
16.2	902	987	985	983	1	1	1	2	3	3	1	1	2	2	2	2
16.3	904	989	987	985	2	0	3	2	0	0	2	2	3	1	1	0
16.4	905	986	987	986	3	2	2	1	2	2	1	1	2	1	1	2
16.5	910	986	987	989	2	2	2	1	3	2	2	1	0	1	2	0
16.6	910	986	985	985	1	3	3	2	3	4	2	1	1	0	1	0
16.7	913	983	983	981	3	5	5	1	3	3	2	1	3	4	0	1
16.8	921	984	980	985	1	7	5	1	3	5	0	2	1	2	0	1
16.9	925	989	987	991	1	5	0	2	2	3	0	1	2	1	1	0
17.	921	985	992	986	3	2	1	2	4	2	1	1	1	1	1	0
17.1	928	990	991	987	1	1	3	1	1	1	4	2	1	1	0	0
17.2	931	989	983	989	0	4	3	4	1	4	0	1	2	1	2	0
17.3	932	990	990	992	1	2	0	1	0	2	1	0	2	2	1	1
17.4	931	986	988	989	2	4	1	0	1	2	2	0	3	3	3	1
17.5	932	991	987	989	1	1	2	2	0	0	1	2	2	0	1	1
17.6	934	989	988	991	0	3	0	1	2	3	1	1	1	1	2	2
17.7	931	986	991	988	4	1	0	1	2	2	0	2	0	1	3	1
17.8	926	985	989	989	1	1	1	0	2	0	3	1	3	3	1	1
17.9	927	982	987	987	4	3	3	0	0	3	4	2	2	0	3	1
18.	934	985	987	990	1	1	2	0	1	4	0	1	1	3	3	1
18.1	939	989	991	989	2	1	1	2	0	1	2	0	0	0	2	3
18.2	937	990	989	987	2	2	1	0	1	0	2	1	4	2	0	1
18.3	938	991	988	988	2	3	4	3	3	1	0	0	1	2	0	0
18.4	931	990	983	986	1	0	2	2	0	5	1	1	3	0	3	1
18.5	939	988	988	989	2	4	3	1	0	2	1	0	2	0	0	0
18.6	938	990	988	991	2	4	2	1	0	3	0	0	1	0	0	1
18.7	934	988	988	991	1	3	1	0	3	1	0	1	1	1	1	1
18.8	932	993	991	990	0	0	0	1	1	0	2	0	1	2	0	2
18.9	934	989	990	986	3	1	4	1	1	0	0	2	0	3	1	1
19.	928	989	985	989	0	0	2	1	1	2	2	3	3	0	1	2
19.1	932	990	988	992	1	1	0	1	2	2	0	0	3	1	2	2
19.2	931	987	988	987	3	0	1	0	5	4	2	2	2	1	3	0
19.3	934	992	987	984	1	2	2	5	3	2	1	2	0	1	0	3
19.4	933	989	989	989	0	2	1	2	1	1	4	1	1	0	2	2
19.5	934	986	983	990	2	2	2	3	0	3	2	2	2	1	2	1
19.6	932	991	988	987	3	3	0	1	0	1	2	1	2	1	1	1
19.7	937	990	991	983	1	2	4	1	1	0	1	2	0	3	1	3
19.8	937	988	989	990	1	3	3	1	2	3	0	2	2	1	0	1
19.9	933	987	987	988	1	2	4	3	2	3	1	3	2	1	0	2
20.	930	987	987	988	1	1	3	4	2	3	0	1	1	1	2	2
20.1	933	986	984	988	2	5	2	2	2	2	2	2	1	1	1	2
20.2	936	988	991	989	1	2	1	2	1	1	1	2	0	0	1	1
20.3	934	986	983	987	4	4	3	3	2	3	0	1	0	2	1	1
20.4	935	989	992	990	1	2	2	0	1	3	2	2	0	2	1	0
20.5	932	989	990	986	0	3	3	2	2	1	2	1	1	1	1	1
20.6	938	987	988	988	2	3	3	3	2	2	2	2	1	0	0	1
20.7	940	989	989	987	2	2	5	4	0	2	0	2	0	0	1	0
20.8	940	988	987	990	2	1	4	3	1	2	0	1	1	0	2	0
20.9	950	989	992	994	1	2	1	0	1	1	0	1	0	2	1	1
21.	947	988	989	991	2	1	1	2	3	3	0	2	2	3	0	1
21.1	943	988	989	990	2	2	2	2	2	2	2	1	2	3	1	1
21.2	945	992	991	992	1	0	2	2	1	0	0	0	1	0	0	1
21.3	948	989	992	987	2	0	3	1	2	2	1	0	0	4	2	0
21.4	941	988	988	987	2	2	1	2	3	1	3	3	2	1	0	3
21.5	941	988	987	987	5	1	1	0	2	2	3	1	3	0	2	3
21.6	942	989	984	987	1	3	5	3	2	2	1	1	2	1	0	3
21.7	940	992	986	988	1	3	2	2	1	2	1	0	2	1	1	3
21.8	943	990	990	988	4	2	1	2	3	0	2	0	0	1	1	2
21.9	938	988	986	987	4	3	3	2	0	4	3	1	1	1	1	2
22.	942	990	989	989	2	2	3	0	1	0	2	2	2	0	2	1
22.1	946	990	987	988	3	3	4	2	0	1	2	3	3	0	0	0
22.2	942	990	988	986	2	1	3	3	3	1	2	0	2	4	1	2
22.3	942	988	987	984	2	2	3	4	3	5	2	0	1	2	2	1
22.4	939	983	989	991	1	3	1	2	2	4	0	6	2	3	0	0
22.5	943	985	989	992	1	2	1	1	2	3	1	4	0	1	2	2
22.6	946	987	992	988	1	2	2	0	3	2	2	4	1	3	0	1
22.7	951	989	992	990	3	1	1	2	1	2	2	2	3	1	0	1
22.8	956	988	993	989	3	2	1	2	4	0	0	1	0	3	0	2
22.9	955	990	990	986	3	3	4	2	4	0	2	1	1	2	1	1
23.	955	993	990	991	0	1	1	3	3	2	1	0	1	2	1	1
23.1	953	990	989	991	2	3	2	3	1	3	1	0	1	1	1	2
23.2	955	986	992	989	2	3	2	1	2	1	2	2	0	2	2	2
23.3	955	990	986	992	1	2	2	2	3	3	1	2	2	0	3	1
23.4	954	992	987	992	0	1	2	3	2	2	2	2	2	1	1	1
23.5	955	994	992	985	2	2	4	5	2	1	2	0	0	0	0	1
23.6	951	994	987	986	2	2	2	3	1	2	2	0	3	0	1	3
23.7	951	992	990	987	4	0	2	3	3	1	2	0	1	0	0	1
23.8	948	990	992	987	3	3	1	2	2	1	3	0	0	0	0	2
23.9	949	988	987	990	3	2	2	1	2	3	3	1	2	1	3	0
24.	950	990	990	995	0	0	1	1	2	1	0	0	3	0	0	0
24.1	955	990	989	993	2	2	3	1	2	1	0	0	2	1	2	1
24.2	952	987	987	988	4	3	3	2	0	2	3	2	2	0	4	2
24.3	957	989	992	994	3	3	3	0	1	2	0	2	0	0	0	0
24.4	954	993	986	993	1	2	2	3	1	3	0	1	3	0	1	1
24.5	955	989	990	989	3	4	1	3	1	2	1	3	1	0	0	2
24.6	950	990	992	988	1	2	1	2	1	2	2	3	0	2	1	1
24.7	949	991	990	987	2	3	3	3	3	1	2	0	0	2	0	1
24.8	946	991	987	987	2	5	2	2	1	1	2	1	2	1	0	4
24.9	947	987	991	989	2	1	3	2	2	0	1	3	0	1	2	2
25.	947	990	993	988	2	0	2	1	3	0	3	1	0	3	1	0
25.1	944	989	992	986	1	2	3	3	3	1	0	1	0	4	1	0
25.2	944	990	989	987	4	1	2	2	1	2	2	0	1	0	3	3
25.3	944	990	988	989	2	3	2	1	1	3	1	0	3	1	1	0
25.4	946	991	991	990	2	1	2	1	1	0	1	2	3	1	1	1
25.5	944	992	986	990	1	3	3	1	0	2	2	2	3	0	1	2
25.6	945	988	990	989	3	3	2	0	2	1	1	1	2	3	0	1
25.7	947	990	992	990	2	2	1	2	1	3	1	0	0	2	2	2
25.8	948	988	987	987	3	5	4	4	3	1	0	2	1	1	1	1
25.9	952	987	987	991	3	5	3	2	4	1	0	2	1	0	1	0
26.	956	989	987	991	0	3	4	1	2	4	1	0	2	3	1	0
26.1	955	987	992	988	3	2	3	2	3	2	2	1	0	3	0	1
26.2	953	989	990	994	3	0	1	0	0	1	2	2	3	0	1	0
26.3	951	990	991	991	3	1	1	2	1	1	2	1	1	0	2	1
26.4	953	987	991	990	3	2	4	2	1	2	2	2	0	0	2	1
26.5	949	989	991	989	1	1	3	3	1	4	2	1	0	1	3	0
26.6	945	989	988	989	3	3	3	1	2	1	0	0	2	0	2	4
26.7	947	990	992	987	1	2	2	1	2	1	4	4	0	0	0	4
26.8	950	989	991	990	0	3	2	1	2	3	1	2	0	1	1	1
26.9	949	989	991	993	1	4	1	0	0	3	1	1	1	2	1	1
27.	950	990	991	992	1	3	2	0	1	2	1	3	2	1	1	0
27.1	951	989	991	989	2	3	2	2	4	1	0	2	0	1	0	1
27.2	949	987	991	987	4	4	3	2	2	1	4	0	0	1	0	1
27.3	950	990	989	991	1	1	0	3	4	3	2	0	2	1	1	0
27.4	948	990	988	989	3	2	3	4	4	2	0	0	2	1	0	0
27.5	943	988	992	988	2	1	1	1	2	0	4	0	1	2	0	0
27.6	939	988	988	990	1	3	2	0	3	0	1	1	4	4	1	1
27.7	936	988	987	989	2	1	3	3	1	0	2	0	2	1	1	1
27.8	941	989	985	990	2	4	5	3	0	3	0	2	4	2	1	0
27.9	937	987	987	984	4	4	4	3	3	0	3	2	3	2	1	1
28.	944	992	987	985	4	6	3	0	1	0	1	0	2	0	0	4
28.1	945	986	987	988	6	2	4	2	3	1	0	0	3	0	2	1
28.2	943	990	990	983	2	1	4	3	4	0	1	1	0	4	1	2
28.3	940	986	991	986	2	0	2	3	5	2	0	0	1	1	2	2
28.4	936	992	991	986	1	1	4	3	1	1	3	1	0	2	0	0
28.5	925	981	987	981	5	3	5	2	5	4	3	3	1	2	2	1
28.6	931	988	986	987	3	2	2	2	3	2	1	1	1	1	0	0
28.7	931	989	987	987	2	3	2	4	2	3	2	0	1	2	0	4
28.8	934	989	986	989	2	4	4	0	0	0	2	0	1	2	3	1
28.9	931	985	987	990	3	4	1	0	2	1	1	2	2	2	2	0
29.	927	987	989	991	3	0	1	0	1	2	0	3	1	1	1	0
29.1	929	990	988	992	1	4	0	1	0	1	0	1	2	1	1	1
29.2	930	987	985	988	3	2	4	2	0	3	1	0	1	0	3	1
29.3	928	989	983	988	1	4	2	2	1	4	1	1	2	2	1	2
29.4	930	989	989	989	2	3	1	0	4	0	1	1	0	1	1	2
29.5	926	987	987	989	2	2	2	2	2	2	1	1	2	1	0	1
29.6	927	988	985	987	0	3	0	2	1	2	2	2	5	1	1	1
29.7	929	987	991	990	0	2	1	2	1	2	0	3	0	1	1	1
29.8	923	984	985	987	2	4	4	2	1	3	3	2	2	0	2	1
29.9	925	983	985	985	3	3	3	2	2	4	0	2	1	4	1	2
30.	924	986	988	985	4	3	4	0	2	1	2	2	3	2	1	0
30.1	925	985	986	986	3	2	2	1	4	5	3	0	3	1	2	0
30.2	928	985	987	985	6	1	4	2	0	1	2	2	1	1	1	2
30.3	927	983	989	984	3	0	2	4	4	4	3	3	0	1	4	1
30.4	930	986	986	992	1	0	2	2	2	2	1	3	2	1	3	1
30.5	936	990	988	989	2	2	1	2	2	2	2	0	1	3	0	2
30.6	941	992	990	991	0	0	1	2	1	1	0	2	1	1	1	2
30.7	938	988	986	989	3	1	1	2	1	2	3	3	2	0	1	3
30.8	940	990	989	987	1	3	2	2	0	2	1	1	2	2	0	3
30.9	940	992	990	990	1	1	2	1	1	1	0	2	1	0	1	0
31.	942	990	989	987	1	0	2	0	1	1	4	1	4	3	2	0
31.1	939	982	987	989	3	2	2	1	1	5	0	5	2	1	3	0
31.2	944	989	988	984	3	3	4	2	4	2	2	0	0	1	1	3
31.3	944	990	988	991	2	0	6	1	2	0	0	2	1	1	1	1
31.4	945	987	988	988	2	3	2	2	2	3	1	3	2	0	2	0
31.5	948	990	992	990	3	2	0	1	2	0	2	1	2	2	1	4
31.6	950	992	991	990	1	2	3	0	0	1	2	0	1	3	1	1
31.7	952	989	990	989	2	5	1	0	3	0	2	0	2	2	0	2
31.8	953	985	991	993	2	3	2	2	1	1	1	3	1	1	0	1
31.9	952	995	988	990	0	2	5	2	1	0	1	0	1	0	0	0
32.	948	994	988	989	1	0	4	2	0	1	1	1	0	1	2	0
32.1	952	989	990	991	0	2	2	1	0	4	2	2	0	3	3	0
32.2	950	988	990	989	1	3	3	1	2	3	1	2	1	3	1	1
32.3	947	989	990	982	3	2	3	1	2	2	5	2	2	2	1	1
32.4	954	991	989	988	2	5	2	1	1	2	1	1	0	2	0	1
32.5	959	991	991	988	3	4	0	2	1	3	2	0	0	2	0	3
32.6	954	991	984	988	4	5	4	3	0	3	1	0	3	2	1	3
32.7	956	991	992	989	2	1	2	1	2	1	2	2	2	1	1	1
32.8	953	990	989	987	3	1	3	2	3	1	1	1	4	2	2	0
32.9	954	989	991	988	4	4	1	0	2	2	1	2	3	0	1	0
33.	955	988	989	988	3	4	1	0	0	3	5	2	3	0	3	3
33.1	958	990	996	990	3	0	1	1	1	1	1	1	1	1	1	0
33.2	960	988	992	985	3	2	3	5	3	2	2	1	0	2	1	2
33.3	958	988	992	989	2	3	1	3	3	2	0	3	0	2	0	3
33.4	954	990	993	990	2	1	1	0	1	2	3	4	0	1	2	1
33.5	954	989	989	988	2	1	3	3	2	2	1	0	2	2	4	1
33.6	958	989	992	987	4	1	0	1	5	2	3	1	1	2	1	2
33.7	956	990	993	991	4	2	0	1	3	2	1	1	2	1	0	1
33.8	960	993	994	989	4	2	0	1	2	2	1	0	1	0	0	0
33.9	958	990	992	993	5	1	1	0	1	1	2	2	2	0	0	0
34.	961	990	988	993	4	3	1	0	2	2	1	1	1	2	2	2
34.1	951	986	990	991	3	0	0	0	1	2	3	6	2	0	3	2
34.2	957	987	991	992	2	3	3	1	1	3	1	3	0	1	1	0
34.3	957	990	991	989	2	1	4	2	4	0	1	1	0	2	1	1
34.4	953	990	992	987	3	1	3	1	1	1	5	1	0	1	2	1
34.5	950	986	990	989	3	2	2	3	1	3	2	2	0	0	1	3
34.6	946	990	988	989	2	2	4	1	0	3	2	0	1	0	2	1
34.7	947	990	989	987	1	3	4	2	1	0	4	2	1	2	2	1
34.8	947	988	988	986	2	5	6	1	1	2	4	1	0	1	1	1
34.9	947	989	991	990	3	3	2	0	1	2	3	2	1	0	1	0
35.	949	992	989	993	3	0	1	1	0	3	0	0	2	0	3	1
35.1	946	992	989	985	2	2	2	0	3	4	5	0	1	2	2	0
35.2	951	990	989	988	1	3	3	3	3	1	1	1	2	0	1	1
35.3	953	990	992	990	2	1	2	2	2	3	2	0	1	0	1	0
35.4	954	991	989	993	1	1	2	2	0	2	1	1	1	2	4	1
35.5	949	991	988	990	2	2	1	5	1	3	1	1	0	0	0	1
35.6	951	990	990	992	1	1	2	2	0	1	0	1	1	2	1	2
35.7	952	989	993	989	2	2	3	2	2	1	1	2	0	3	0	1
35.8	949	989	990	988	2	1	1	2	5	0	1	3	1	0	1	1
35.9	952	993	991	991	0	1	2	0	2	1	0	2	1	2	0	2
36.	949	988	986	989	3	4	4	2	2	3	2	2	4	1	0	1
36.1	946	988	987	988	3	4	2	3	2	2	1	0	1	2	3	0
36.2	941	987	986	991	1	2	3	2	2	1	0	1	1	2	1	1
36.3	936	991	987	987	2	4	2	2	0	1	1	2	1	1	0	3
36.4	934	991	985	988	1	4	5	1	1	2	1	0	4	0	0	1
36.5	933	985	983	990	4	3	4	2	1	4	1	2	4	1	2	0
36.6	929	984	989	988	3	0	2	2	1	3	2	4	2	1	1	0
36.7	929	991	993	987	2	2	1	2	2	0	3	0	1	1	0	0
36.8	930	990	988	987	3	2	2	3	0	0	1	1	1	0	0	4
36.9	924	988	991	986	4	2	1	0	0	2	1	3	0	1	0	3
37.	923	986	989	988	3	0	1	1	2	1	0	2	1	3	2	2
37.1	919	985	988	987	1	0	4	1	1	4	2	2	0	1	2	0
37.2	918	983	987	988	1	2	2	1	1	1	3	3	2	1	2	0
37.3	920	990	989	987	0	2	0	2	1	0	3	2	0	3	2	2
37.4	926	991	986	987	3	2	1	3	1	1	1	1	3	1	0	3
37.5	926	986	986	987	5	2	2	1	3	1	2	1	0	1	2	1
37.6	931	988	989	989	4	3	2	1	1	1	1	0	2	2	1	1
37.7	934	989	991	991	2	2	2	0	0	1	1	0	0	3	1	1
37.8	936	988	987	989	2	2	3	2	0	3	1	1	1	1	2	0
37.9	934	987	986	991	0	4	1	3	1	7	1	1	1	0	2	0
38.	934	982	989	985	3	3	1	1	3	5	4	3	0	2	3	1
38.1	939	989	989	988	2	2	2	2	2	2	1	0	1	1	2	1
38.2	940	987	985	987	4	2	5	4	1	3	0	1	3	0	2	0
38.3	946	989	989	991	2	4	0	2	2	3	0	1	0	1	1	0
38.4	944	990	988	988	3	3	3	2	3	3	2	0	0	0	3	1
38.5	941	989	991	990	1	1	1	1	1	3	2	2	0	0	0	2
38.6	940	992	989	990	3	1	1	1	1	0	0	2	1	1	1	2
38.7	944	993	989	987	1	1	3	0	0	3	4	0	0	0	2	1
38.8	949	991	988	990	1	1	1	3	1	2	2	1	1	0	2	1
38.9	951	989	992	992	0	1	1	2	4	3	1	2	1	1	1	0
39.	952	985	989	987	6	3	4	1	4	3	2	0	0	0	3	0
39.1	953	985	988	985	6	6	4	0	2	2	3	4	2	1	1	0
39.2	954	989	992	992	2	1	0	2	3	1	2	4	1	0	0	0
39.3	954	989	992	992	3	2	1	0	1	1	0	0	2	1	0	2
39.4	953	990	993	992	2	1	1	0	0	0	0	0	2	2	2	3
39.5	958	993	992	991	2	2	2	0	0	1	2	0	1	1	1	1
39.6	960	992	993	993	2	3	2	1	0	2	0	0	0	1	1	1
39.7	960	990	993	987	4	2	2	2	1	2	2	2	1	1	0	1
39.8	955	989	989	990	1	0	4	4	2	1	0	5	2	3	2	0
39.9	960	994	991	988	3	1	4	2	2	0	2	0	0	0	2	1
40.	959	990	993	992	1	1	3	2	1	1	0	3	0	0	2	0
40.1	955	990	989	993	0	2	1	4	1	3	0	2	2	0	1	0
40.2	952	988	988	992	2	3	3	2	1	3	1	0	2	1	4	0
40.3	949	988	991	985	2	2	2	2	4	2	3	2	1	2	3	0
40.4	952	991	988	989	4	2	2	2	1	1	1	2	3	1	0	2
40.5	954	993	990	990	1	2	4	3	2	0	1	0	2	2	1	0
40.6	955	992	990	992	1	2	0	1	3	4	1	0	0	1	1	1
40.7	956	990	993	990	1	1	0	1	2	3	0	1	0	3	2	3
40.8	953	988	990	991	3	3	2	1	1	1	1	3	0	1	2	1
40.9	954	992	988	993	2	2	0	1	1	2	1	0	2	0	3	0
41.	954	990	991	988	1	0	2	3	1	4	3	1	2	0	2	0
41.1	954	991	991	990	1	3	2	0	0	1	2	1	1	1	3	2
41.2	958	991	988	992	1	3	3	0	2	1	0	1	2	2	2	1
41.3	955	989	991	992	0	1	1	1	3	4	1	2	2	2	2	0
41.4	958	989	988	991	3	5	2	1	2	4	2	2	0	0	1	0
41.5	957	987	989	990	2	3	2	2	3	4	1	2	4	1	1	0
41.6	964	990	991	988	4	3	3	4	3	2	2	0	0	1	1	1
41.7	959	994	991	990	1	3	0	1	1	2	1	0	0	1	0	3
41.8	954	990	988	989	2	2	0	2	3	2	3	2	2	0	2	3
41.9	958	989	990	991	3	3	1	0	1	3	2	1	1	2	1	0
42.	959	990	990	993	2	2	1	2	1	4	1	2	0	0	1	1
42.1	960	990	993	989	4	3	2	3	2	0	1	1	0	1	1	1
42.2	960	993	991	990	3	1	2	2	1	0	1	0	1	2	1	0
42.3	956	990	989	992	3	3	1	2	1	1	0	1	3	0	0	1
42.4	954	989	988	989	1	4	4	4	2	3	1	0	0	0	1	1
42.5	953	988	988	989	2	2	3	4	2	2	3	4	0	0	1	1
42.6	953	988	992	991	3	1	3	2	2	1	0	0	1	2	0	0
42.7	951	991	991	990	2	0	1	1	3	1	0	2	2	2	1	1
42.8	949	988	988	991	1	4	1	0	1	2	2	3	2	2	2	2
42.9	953	991	991	990	1	1	2	4	2	0	2	2	1	0	0	0
43.	945	991	987	987	1	3	2	2	0	0	5	3	3	0	0	1
43.1	948	989	993	987	2	2	4	0	1	0	4	2	0	1	3	0
43.2	946	989	989	988	1	1	2	1	2	2	5	2	1	2	3	0
43.3	950	990	990	992	2	1	0	0	3	0	0	2	4	2	2	1
43.4	937	987	989	989	2	1	1	2	1	2	2	2	2	1	2	1
43.5	942	988	992	987	3	0	1	3	3	1	0	1	0	1	2	4
43.6	937	992	989	985	2	1	3	1	2	0	2	1	2	2	1	2
43.7	941	989	991	987	2	1	2	1	2	1	2	1	0	4	1	3
43.8	941	986	988	989	4	2	1	1	3	3	2	4	2	0	0	1
43.9	944	987	988	989	3	2	2	3	2	2	1	5	0	2	0	3
44.	948	987	991	986	2	2	2	2	0	2	3	3	1	2	1	2
44.1	950	989	994	989	1	1	1	0	3	1	1	0	1	4	2	0
44.2	943	989	990	985	3	0	1	2	3	0	4	5	1	2	1	3
44.3	956	988	993	992	0	1	1	1	2	2	0	1	0	2	2	1
44.4	956	989	989	988	3	1	4	3	0	3	3	2	2	1	3	0
